time (s)	det(V)
427316.503269	0.296028	
427316.505269	0.288570	
427316.507269	0.282036	
427316.509269	0.274833	
427316.511269	0.268492	
427316.513270	0.260867	
427316.517285	0.254317	
427316.519285	0.240558	
427316.521285	0.234606	
427316.523285	0.229179	
427316.525286	0.221214	
427316.527285	0.215125	
427316.529285	0.209382	
427316.531285	0.202101	
427316.533285	0.196536	
427316.537283	0.189901	
427316.539285	0.178853	
427316.541285	0.173093	
427316.543285	0.167191	
427316.545285	0.161660	
427316.547285	0.155456	
427316.549286	0.151569	
427316.553285	0.145545	
427316.557285	0.135081	
427316.559287	0.126751	
427316.561286	0.122001	
427316.563287	0.117921	
427316.565287	0.113002	
427316.567287	0.108620	
427316.571285	0.105708	
427316.573286	0.096956	
427316.575287	0.093080	
427316.579287	0.089146	
427316.581288	0.083766	
427316.583287	0.081595	
427316.585287	0.076733	
427316.587287	0.074517	
427316.589287	0.071976	
427316.593286	0.067723	
427316.597287	0.062992	
427316.599286	0.057925	
427316.601288	0.056077	
427316.603286	0.053627	
427316.605287	0.051475	
427316.609285	0.049051	
427316.611288	0.044675	
427316.613287	0.041639	
427316.617287	0.040738	
427316.619287	0.038405	
427316.621288	0.036182	
427316.623287	0.034575	
427316.625286	0.032867	
427316.627286	0.031902	
427316.631286	0.028998	
427316.635287	0.026170	
427316.637287	0.025018	
427316.639290	0.023973	
427316.641289	0.021288	
427316.643289	0.021320	
427316.647287	0.019977	
427316.649289	0.017091	
427316.651289	0.016385	
427316.655289	0.015155	
427316.657289	0.013050	
427316.659289	0.013292	
427316.661289	0.012299	
427316.663290	0.010236	
427316.665288	0.010884	
427316.667290	0.009312	
427316.671288	0.008006	
427316.673289	0.007030	
427316.685248	0.003307	
427316.687249	0.003506	
427316.691257	0.003800	
427316.693258	0.002531	
427316.695259	0.002872	
427316.697259	0.002828	
427316.699259	0.002281	
427316.701258	0.002277	
427316.703259	0.002800	
427316.707256	-0.000010	
427316.709257	0.000057	
427316.711258	-0.000591	
427316.715257	-0.000815	
427316.717258	-0.000284	
427316.719257	-0.001001	
427316.721258	0.000451	
427316.723261	-0.001271	
427316.725257	-0.000641	
427316.727258	-0.001860	
427316.731258	-0.002235	
427316.733257	-0.002035	
427316.735258	-0.001674	
427316.737257	-0.000823	
427316.739258	-0.001722	
427316.741256	-0.001738	
427316.743257	-0.001911	
427316.747258	-0.002281	
427316.751256	-0.002135	
427316.753257	-0.001788	
427316.755258	-0.002197	
427316.757258	-0.001885	
427316.759258	-0.002403	
427316.761258	-0.001740	
427316.765256	-0.002639	
427316.767257	-0.002686	
427316.769256	-0.003234	
427316.773257	-0.003070	
427316.775257	-0.002334	
427316.777258	-0.002883	
427316.779258	-0.002660	
427316.781257	-0.002962	
427316.785254	-0.002533	
427316.789256	-0.003749	
427316.791258	-0.002348	
427316.793258	-0.002481	
427316.795257	-0.002568	
427316.797258	-0.002319	
427316.799257	-0.002144	
427316.803255	-0.003302	
427316.805257	-0.003063	
427316.807256	-0.003596	
427316.811267	-0.003779	
427316.813268	-0.002484	
427316.815268	-0.001055	
427316.817268	-0.002626	
427316.819268	-0.001934	
427316.821267	-0.002671	
427316.825267	-0.002697	
427316.829267	-0.002395	
427316.831268	-0.001789	
427316.833267	-0.000561	
427316.835267	-0.001566	
427316.837267	-0.000545	
427316.841266	-0.001530	
427316.843267	-0.001586	
427316.845268	-0.002977	
427316.849267	-0.000558	
427316.851268	-0.001856	
427316.853267	-0.001148	
427316.855268	-0.003552	
427316.857268	-0.003208	
427316.859268	-0.000528	
427316.861267	-0.001206	
427316.865267	-0.002292	
427316.867268	-0.001538	
427316.869268	-0.001815	
427316.871266	-0.000933	
427316.873267	-0.000813	
427316.875268	-0.001098	
427316.877267	-0.000778	
427316.879268	-0.001210	
427316.881273	-0.001240	
427316.885276	-0.000683	
427316.887277	-0.000558	
427316.889278	-0.000559	
427316.891279	-0.000259	
427316.893278	0.000379	
427316.895285	0.000017	
427316.897290	0.000088	
427316.901289	-0.000700	
427316.903290	-0.000648	
427316.905289	-0.000595	
427316.909289	-0.000519	
427316.911289	-0.000351	
427316.913289	0.000359	
427316.915290	0.000778	
427316.917289	0.000286	
427316.921288	-0.000607	
427316.923290	0.000193	
427316.925288	0.000254	
427316.927290	-0.000337	
427316.929290	0.000219	
427316.931289	0.000718	
427316.933288	0.000895	
427316.935288	0.000985	
427316.937288	0.000902	
427316.941287	0.001238	
427316.945286	0.000158	
427316.947289	0.000081	
427316.949289	0.001492	
427316.951289	0.001043	
427316.953288	0.000657	
427316.955288	0.000842	
427316.959287	0.000667	
427316.961288	-0.000582	
427316.963290	-0.000305	
427316.967288	-0.000838	
427316.969288	0.000330	
427316.971288	0.000172	
427316.973288	-0.000707	
427316.975289	0.001155	
427316.977289	0.000587	
427316.979287	-0.000168	
427316.983297	-0.001511	
427316.985297	-0.000864	
427316.987297	0.000057	
427316.989298	-0.000051	
427316.991298	0.000784	
427316.993298	0.000153	
427316.995299	-0.000026	
427316.999297	-0.001254	
427317.001298	-0.001343	
427317.003298	-0.002587	
427317.005298	-0.001428	
427317.007305	-0.001661	
427317.009302	-0.000907	
427317.011303	-0.000771	
427317.013303	-0.002493	
427317.015303	-0.001038	
427317.017303	-0.002673	
427317.021303	-0.003263	
427317.023302	-0.004149	
427317.025302	-0.004289	
427317.027303	-0.003679	
427317.029302	-0.003401	
427317.031303	-0.003787	
427317.033302	-0.004524	
427317.035303	-0.005476	
427317.037302	-0.004803	
427317.041310	-0.006544	
427317.045312	-0.007633	
427317.047311	-0.008268	
427317.049311	-0.006943	
427317.051312	-0.009202	
427317.053310	-0.009939	
427317.057309	-0.009301	
427317.059310	-0.010930	
427317.061311	-0.010856	
427317.065310	-0.013049	
427317.067310	-0.014064	
427317.069311	-0.014458	
427317.071310	-0.015727	
427317.073310	-0.016113	
427317.075310	-0.015956	
427317.077311	-0.017265	
427317.081315	-0.018938	
427317.083317	-0.020758	
427317.085317	-0.020358	
427317.087317	-0.022613	
427317.089317	-0.022186	
427317.091320	-0.024644	
427317.093325	-0.025245	
427317.097322	-0.028179	
427317.099325	-0.031820	
427317.101324	-0.033238	
427317.103325	-0.034103	
427317.105337	-0.033925	
427317.107335	-0.037062	
427317.109335	-0.036739	
427317.111335	-0.038122	
427317.113335	-0.042542	
427317.115335	-0.043694	
427317.119335	-0.047375	
427317.121334	-0.047387	
427317.123335	-0.053020	
427317.125335	-0.053171	
427317.127335	-0.056857	
427317.129334	-0.058208	
427317.131336	-0.062660	
427317.133335	-0.062495	
427317.135334	-0.065177	
427317.139334	-0.069193	
427317.143334	-0.075466	
427317.145333	-0.079924	
427317.147335	-0.085157	
427317.149334	-0.088073	
427317.151335	-0.093038	
427317.155334	-0.096084	
427317.157336	-0.105140	
427317.159333	-0.107749	
427317.163334	-0.112534	
427317.165334	-0.120017	
427317.167338	-0.125676	
427317.169334	-0.131741	
427317.171335	-0.134668	
427317.173334	-0.139677	
427317.175335	-0.145401	
427317.179334	-0.150118	
427317.181334	-0.161105	
427317.183335	-0.166542	
427317.185334	-0.174356	
427317.187337	-0.179155	
427317.189338	-0.186593	
427317.191338	-0.192005	
427317.195341	-0.199167	
427317.197343	-0.213912	
427317.199342	-0.218086	
427317.201343	-0.226480	
427317.203343	-0.232933	
427317.205343	-0.239896	
427317.207342	-0.246312	
427317.209342	-0.253999	
427317.211343	-0.260994	
427317.215342	-0.270332	
427317.219340	-0.285603	
427317.221342	-0.301043	
427317.223343	-0.309148	
427317.225342	-0.316055	
427317.227343	-0.323837	
427317.229342	-0.331681	
427317.233341	-0.340211	
427317.235343	-0.356642	
427317.237342	-0.364692	
427317.241343	-0.371519	
427317.243343	-0.385037	
427317.245342	-0.394397	
427317.247342	-0.401317	
427317.249343	-0.406503	
427317.251343	-0.412398	
427317.255343	-0.417280	
427317.259342	-0.428479	
427317.261342	-0.438987	
427317.265341	-0.449953	
427317.267342	-0.454695	
427317.271340	-0.460720	
427317.273343	-0.468715	
427317.275342	-0.472350	
427317.279343	-0.475417	
427317.281343	-0.479389	
427317.283342	-0.481018	
427317.285343	-0.484074	
427317.287342	-0.484244	
427317.289343	-0.484544	
427317.293343	-0.486078	
427317.295342	-0.484332	
427317.297342	-0.484779	
427317.299343	-0.481323	
427317.301343	-0.479932	
427317.303344	-0.477109	
427317.305344	-0.474580	
427317.307344	-0.471922	
427317.309343	-0.468291	
427317.313340	-0.465251	
427317.317341	-0.456203	
427317.319343	-0.446235	
427317.323340	-0.433790	
427317.325343	-0.426801	
427317.329342	-0.421837	
427317.331343	-0.411150	
427317.333342	-0.405539	
427317.337342	-0.399409	
427317.339342	-0.381775	
427317.341342	-0.373499	
427317.343342	-0.365459	
427317.345343	-0.355854	
427317.349340	-0.349453	
427317.353340	-0.329809	
427317.355342	-0.311468	
427317.357342	-0.302331	
427317.359343	-0.292461	
427317.361342	-0.282995	
427317.363342	-0.273226	
427317.367341	-0.263090	
427317.369342	-0.246565	
427317.371341	-0.236478	
427317.375343	-0.227347	
427317.377343	-0.208005	
427317.379344	-0.199748	
427317.381342	-0.190414	
427317.383343	-0.181205	
427317.385342	-0.171345	
427317.387343	-0.162847	
427317.391344	-0.154575	
427317.393343	-0.135200	
427317.395344	-0.127180	
427317.397343	-0.117404	
427317.399342	-0.107119	
427317.401343	-0.098088	
427317.403343	-0.088547	
427317.405343	-0.080399	
427317.407343	-0.072154	
427317.411342	-0.063257	
427317.413342	-0.044815	
427317.415343	-0.034385	
427317.417341	-0.025573	
427317.419343	-0.015399	
427317.421343	-0.007058	
427317.423343	0.001934	
427317.427342	0.012635	
427317.429342	0.029300	
427317.431341	0.040212	
427317.433343	0.050169	
427317.435345	0.059735	
427317.437343	0.069229	
427317.439343	0.078272	
427317.441343	0.088490	
427317.443343	0.099259	
427317.445343	0.109512	
427317.449344	0.118271	
427317.451343	0.137608	
427317.453341	0.148704	
427317.455343	0.161078	
427317.457343	0.171181	
427317.459342	0.181192	
427317.461343	0.190757	
427317.463343	0.200859	
427317.465343	0.211000	
427317.469342	0.220992	
427317.473343	0.240244	
427317.475342	0.262364	
427317.477348	0.272447	
427317.479350	0.282851	
427317.481348	0.292301	
427317.485345	0.302624	
427317.487347	0.321238	
427317.489353	0.330717	
427317.493351	0.339331	
427317.495351	0.357632	
427317.497350	0.367155	
427317.499352	0.375919	
427317.501352	0.382845	
427317.505349	0.391281	
427317.507352	0.403841	
427317.511352	0.409695	
427317.513351	0.417584	
427317.515352	0.423292	
427317.517351	0.429167	
427317.519352	0.432861	
427317.523350	0.438229	
427317.525352	0.444419	
427317.527351	0.448712	
427317.531351	0.451047	
427317.533351	0.456805	
427317.535351	0.458085	
427317.537352	0.459127	
427317.539352	0.460718	
427317.543350	0.460949	
427317.547349	0.459684	
427317.549351	0.458290	
427317.551351	0.456020	
427317.553354	0.455116	
427317.555351	0.452443	
427317.557351	0.449715	
427317.561349	0.447173	
427317.563352	0.439919	
427317.565352	0.436432	
427317.569350	0.432077	
427317.571351	0.425727	
427317.573352	0.420776	
427317.575358	0.416771	
427317.577359	0.413386	
427317.579360	0.409158	
427317.581362	0.405099	
427317.585365	0.399330	
427317.587365	0.388340	
427317.589366	0.383180	
427317.591366	0.376314	
427317.593363	0.370387	
427317.595366	0.363786	
427317.597365	0.356673	
427317.599365	0.350499	
427317.601365	0.343063	
427317.603366	0.336299	
427317.607365	0.330260	
427317.609365	0.316307	
427317.611366	0.309215	
427317.613365	0.301429	
427317.615366	0.295208	
427317.617365	0.288669	
427317.621363	0.281286	
427317.623364	0.266404	
427317.625367	0.260365	
427317.629365	0.253584	
427317.631366	0.240503	
427317.633365	0.234070	
427317.635365	0.227288	
427317.637366	0.221413	
427317.639365	0.214736	
427317.643365	0.208244	
427317.645365	0.196888	
427317.647366	0.190540	
427317.649365	0.186910	
427317.651369	0.181379	
427317.653368	0.175943	
427317.655368	0.170571	
427317.657371	0.164726	
427317.659369	0.160063	
427317.663370	0.154369	
427317.667370	0.145277	
427317.669372	0.136834	
427317.671371	0.132751	
427317.673372	0.128270	
427317.675370	0.123650	
427317.679369	0.118999	
427317.681371	0.111643	
427317.683371	0.108323	
427317.687371	0.103585	
427317.689372	0.098360	
427317.691371	0.094701	
427317.693371	0.092227	
427317.695371	0.088270	
427317.697371	0.084940	
427317.701371	0.082499	
427317.705371	0.076913	
427317.707371	0.072247	
427317.709372	0.070132	
427317.711372	0.067769	
427317.713373	0.065730	
427317.717369	0.064268	
427317.719371	0.058085	
427317.721371	0.057052	
427317.725371	0.054522	
427317.727372	0.052142	
427317.729372	0.049971	
427317.731371	0.048669	
427317.733372	0.047066	
427317.735372	0.046101	
427317.739383	0.042751	
427317.743383	0.039730	
427317.745383	0.038619	
427317.747385	0.037562	
427317.749389	0.036767	
427317.751387	0.035462	
427317.755385	0.033372	
427317.757388	0.030654	
427317.759387	0.030359	
427317.763386	0.028547	
427317.765388	0.027778	
427317.767387	0.026827	
427317.769387	0.025581	
427317.771389	0.025308	
427317.773387	0.023985	
427317.775387	0.022504	
427317.779385	0.022234	
427317.781388	0.020774	
427317.783388	0.021122	
427317.785387	0.019682	
427317.787387	0.019712	
427317.799323	0.014349	
427317.801324	0.014956	
427317.805324	0.015969	
427317.807325	0.013511	
427317.809325	0.012588	
427317.811325	0.011431	
427317.813325	0.012383	
427317.815324	0.012705	
427317.819325	0.011352	
427317.821325	0.009476	
427317.823324	0.008140	
427317.825330	0.010138	
427317.827331	0.010445	
427317.829334	0.010317	
427317.831340	0.009556	
427317.833338	0.008909	
427317.835339	0.007550	
427317.837340	0.006178	
427317.841338	0.007618	
427317.843339	0.006876	
427317.845339	0.006870	
427317.847338	0.005666	
427317.849338	0.006660	
427317.851339	0.005951	
427317.853338	0.006351	
427317.855339	0.005698	
427317.857339	0.004223	
427317.861337	0.004578	
427317.863340	0.003899	
427317.865339	0.005927	
427317.867339	0.004631	
427317.869338	0.004098	
427317.871339	0.003838	
427317.873339	0.004337	
427317.875338	0.003440	
427317.877338	0.002937	
427317.881337	0.002033	
427317.883339	0.002089	
427317.885339	0.003267	
427317.887339	0.003224	
427317.889338	0.003406	
427317.891339	0.002051	
427317.893339	0.002832	
427317.897336	0.001938	
427317.899338	0.001506	
427317.901338	0.000956	
427317.905338	0.001486	
427317.907338	0.001276	
427317.909340	0.001424	
427317.911340	0.001154	
427317.913341	0.000939	
427317.915343	0.001772	
427317.917339	-0.000785	
427317.921342	-0.000540	
427317.923342	-0.000713	
427317.925342	0.000857	
427317.927343	0.001177	
427317.929342	0.001076	
427317.931343	-0.000103	
427317.933343	-0.000367	
427317.937341	0.000785	
427317.939343	-0.000777	
427317.941342	-0.000669	
427317.945341	-0.001321	
427317.947342	-0.001557	
427317.949342	-0.000678	
427317.951342	-0.003101	
427317.953341	-0.000340	
427317.955343	0.000563	
427317.957342	-0.003080	
427317.961342	-0.003411	
427317.963343	-0.001304	
427317.965343	-0.002108	
427317.967342	-0.002470	
427317.969342	-0.001960	
427317.971343	-0.002577	
427317.973342	0.000493	
427317.975342	-0.002107	
427317.977343	-0.004938	
427317.981342	-0.004704	
427317.983343	-0.003018	
427317.985343	-0.002827	
427317.987342	-0.004197	
427317.989343	-0.003257	
427317.991343	-0.004214	
427317.993342	-0.002633	
427317.997341	-0.004591	
427317.999343	-0.004969	
427318.001346	-0.004821	
427318.003348	-0.005557	
427318.005360	-0.005119	
427318.007359	-0.005414	
427318.009359	-0.005564	
427318.011359	-0.005978	
427318.013359	-0.006980	
427318.015360	-0.006967	
427318.019358	-0.008055	
427318.023358	-0.007880	
427318.025358	-0.008188	
427318.027358	-0.007850	
427318.029358	-0.008698	
427318.031359	-0.009421	
427318.035357	-0.009747	
427318.037358	-0.010386	
427318.039359	-0.010734	
427318.043358	-0.011586	
427318.045360	-0.011195	
427318.047358	-0.011490	
427318.049358	-0.011858	
427318.051358	-0.013730	
427318.053358	-0.013662	
427318.057360	-0.014050	
427318.061360	-0.015849	
427318.063359	-0.017125	
427318.065360	-0.016904	
427318.067359	-0.018231	
427318.069361	-0.018882	
427318.073358	-0.018421	
427318.075360	-0.020917	
427318.077358	-0.023135	
427318.081359	-0.022214	
427318.083360	-0.022882	
427318.085362	-0.024703	
427318.087360	-0.025593	
427318.089360	-0.025664	
427318.091360	-0.026644	
427318.095366	-0.027929	
427318.099368	-0.030481	
427318.101368	-0.032478	
427318.103368	-0.033558	
427318.105368	-0.035016	
427318.107367	-0.035600	
427318.111366	-0.036582	
427318.113368	-0.040494	
427318.115369	-0.040606	
427318.119368	-0.043517	
427318.121368	-0.045461	
427318.123369	-0.046735	
427318.125369	-0.049527	
427318.127370	-0.051209	
427318.129368	-0.052860	
427318.131372	-0.055136	
427318.135376	-0.057229	
427318.137376	-0.061349	
427318.139376	-0.061073	
427318.141375	-0.063728	
427318.143376	-0.066250	
427318.145376	-0.069360	
427318.147376	-0.070265	
427318.149376	-0.073185	
427318.151376	-0.077088	
427318.155379	-0.079857	
427318.157380	-0.084155	
427318.159380	-0.085607	
427318.161379	-0.089188	
427318.163380	-0.092856	
427318.165380	-0.094043	
427318.167380	-0.097016	
427318.171378	-0.103389	
427318.175378	-0.109454	
427318.177380	-0.115731	
427318.179383	-0.118703	
427318.181380	-0.124038	
427318.183380	-0.126510	
427318.185379	-0.132751	
427318.187380	-0.135356	
427318.189381	-0.141154	
427318.193379	-0.145003	
427318.195381	-0.152795	
427318.197386	-0.156589	
427318.199386	-0.162179	
427318.201387	-0.166513	
427318.203386	-0.172041	
427318.205386	-0.174112	
427318.207386	-0.179829	
427318.209385	-0.184776	
427318.211386	-0.189726	
427318.215385	-0.193557	
427318.217385	-0.205099	
427318.219387	-0.209472	
427318.221386	-0.213295	
427318.223385	-0.219091	
427318.225386	-0.222690	
427318.227386	-0.228815	
427318.229385	-0.234878	
427318.231386	-0.240848	
427318.233387	-0.246962	
427318.237388	-0.251685	
427318.239388	-0.261653	
427318.241389	-0.267091	
427318.243388	-0.272045	
427318.245388	-0.275611	
427318.247388	-0.281138	
427318.251386	-0.286484	
427318.253388	-0.297381	
427318.255388	-0.302551	
427318.259388	-0.307191	
427318.261388	-0.317827	
427318.263388	-0.322363	
427318.265390	-0.324532	
427318.267388	-0.330637	
427318.269388	-0.333633	
427318.273388	-0.338208	
427318.277388	-0.347488	
427318.279388	-0.354595	
427318.281389	-0.357683	
427318.283387	-0.359767	
427318.285390	-0.363629	
427318.289385	-0.364687	
427318.291388	-0.370201	
427318.293387	-0.371961	
427318.297391	-0.374254	
427318.299392	-0.375640	
427318.301392	-0.376242	
427318.303393	-0.376064	
427318.305391	-0.376419	
427318.307391	-0.375547	
427318.311391	-0.374780	
427318.315392	-0.372630	
427318.317393	-0.367243	
427318.319390	-0.365776	
427318.321392	-0.361605	
427318.323392	-0.358294	
427318.327390	-0.354759	
427318.329392	-0.345736	
427318.331393	-0.342694	
427318.335392	-0.336246	
427318.337393	-0.322604	
427318.339391	-0.318759	
427318.341392	-0.312582	
427318.343392	-0.305627	
427318.345392	-0.298344	
427318.349390	-0.290554	
427318.353391	-0.275853	
427318.355392	-0.259371	
427318.357392	-0.251000	
427318.359392	-0.242577	
427318.361391	-0.235007	
427318.365390	-0.225062	
427318.367392	-0.208090	
427318.369391	-0.200027	
427318.373392	-0.191044	
427318.375393	-0.172711	
427318.377391	-0.161851	
427318.379392	-0.154220	
427318.381392	-0.144281	
427318.383393	-0.135064	
427318.387391	-0.125818	
427318.391392	-0.107451	
427318.393392	-0.087913	
427318.395393	-0.078896	
427318.397398	-0.069684	
427318.399396	-0.059838	
427318.403394	-0.051984	
427318.405396	-0.035000	
427318.407395	-0.026776	
427318.411395	-0.017094	
427318.413396	-0.000674	
427318.415396	0.008598	
427318.417397	0.016375	
427318.419395	0.024439	
427318.421396	0.032463	
427318.423395	0.038964	
427318.427397	0.047827	
427318.429398	0.064157	
427318.431398	0.072938	
427318.433398	0.080600	
427318.435398	0.089814	
427318.437398	0.098498	
427318.439398	0.106354	
427318.441397	0.114408	
427318.443398	0.121372	
427318.445399	0.130405	
427318.449406	0.138910	
427318.451407	0.155790	
427318.453406	0.165050	
427318.455406	0.173784	
427318.457406	0.181146	
427318.459406	0.190486	
427318.463404	0.198056	
427318.465406	0.215012	
427318.467405	0.222337	
427318.471405	0.231006	
427318.473406	0.248422	
