time (s)	det(V)
429058.971998	0.028882	
429058.973998	0.041968	
429058.975999	0.051514	
429058.980011	0.065235	
429058.982011	0.088592	
429058.984012	0.100379	
429058.986012	0.111907	
429058.988012	0.121070	
429058.990011	0.130729	
429058.992013	0.140387	
429058.996010	0.149321	
429058.998013	0.163821	
429059.000011	0.174831	
429059.002009	0.182164	
429059.004012	0.188718	
429059.006012	0.196533	
429059.008012	0.199739	
429059.010011	0.203847	
429059.012011	0.210451	
429059.014011	0.216392	
429059.018011	0.223208	
429059.022011	0.224008	
429059.024012	0.230631	
429059.026012	0.233577	
429059.028011	0.237590	
429059.030012	0.239054	
429059.034010	0.242098	
429059.036012	0.249840	
429059.038011	0.251200	
429059.042016	0.254801	
429059.044015	0.261416	
429059.046015	0.266651	
429059.048015	0.268326	
429059.050014	0.272070	
429059.054012	0.276064	
429059.058013	0.284535	
429059.060013	0.291955	
429059.062014	0.298040	
429059.064017	0.301953	
429059.066016	0.307593	
429059.068016	0.312022	
429059.070018	0.315582	
429059.072016	0.320427	
429059.076015	0.323174	
429059.080015	0.330930	
429059.082016	0.338104	
429059.084016	0.342524	
429059.086018	0.345212	
429059.088016	0.347664	
429059.092014	0.350955	
429059.094017	0.353004	
429059.096016	0.353134	
429059.100015	0.353676	
429059.102017	0.352887	
429059.104018	0.353881	
429059.106016	0.351476	
429059.108017	0.348840	
429059.110017	0.345549	
429059.112015	0.342428	
429059.116016	0.337266	
429059.118016	0.329957	
429059.120016	0.325688	
429059.122017	0.319696	
429059.124017	0.313885	
429059.126016	0.308282	
429059.128017	0.300533	
429059.130017	0.294490	
429059.132017	0.286323	
429059.136016	0.280921	
429059.138017	0.266507	
429059.140017	0.260401	
429059.142017	0.254444	
429059.144017	0.247144	
429059.146016	0.239267	
429059.148023	0.233034	
429059.152026	0.225941	
429059.154029	0.212417	
429059.156028	0.206412	
429059.160027	0.200321	
429059.162029	0.191317	
429059.164028	0.185109	
429059.166029	0.178619	
429059.168031	0.174449	
429059.172028	0.169511	
429059.174030	0.160303	
429059.176031	0.155447	
429059.178029	0.152663	
429059.180031	0.149302	
429059.182031	0.146317	
429059.184030	0.143076	
429059.186031	0.140099	
429059.188030	0.136985	
429059.192029	0.135548	
429059.196029	0.128608	
429059.198030	0.125175	
429059.200030	0.122589	
429059.202030	0.121824	
429059.204030	0.118724	
429059.206031	0.117337	
429059.210028	0.114931	
429059.212030	0.109275	
429059.214030	0.108918	
429059.218029	0.106760	
429059.220031	0.103065	
429059.222030	0.101950	
429059.224030	0.098534	
429059.226031	0.096154	
429059.228031	0.094582	
429059.230038	0.092182	
429059.234048	0.090191	
429059.236050	0.085143	
429059.238051	0.084481	
429059.240051	0.081918	
429059.242050	0.079328	
429059.244051	0.077063	
429059.246049	0.074248	
429059.248051	0.071524	
429059.250050	0.068618	
429059.254049	0.066175	
429059.256050	0.062574	
429059.258051	0.060400	
429059.260050	0.057255	
429059.262050	0.055323	
429059.264050	0.051920	
429059.266051	0.051317	
429059.268051	0.047623	
429059.270049	0.044179	
429059.272051	0.043032	
429059.276049	0.041094	
429059.278052	0.037607	
429059.280049	0.035295	
429059.282052	0.034932	
429059.284050	0.034176	
429059.286051	0.031866	
429059.290049	0.029878	
429059.292050	0.026780	
429059.294051	0.025766	
429059.298049	0.024047	
429059.300051	0.022750	
429059.302050	0.021973	
429059.304052	0.020776	
429059.306049	0.021336	
429059.308051	0.019932	
429059.312050	0.017961	
429059.316049	0.016920	
429059.318050	0.017182	
429059.320054	0.017254	
429059.322055	0.016967	
429059.324054	0.016067	
429059.328052	0.015953	
429059.330053	0.015218	
429059.332053	0.014392	
429059.336053	0.014973	
429059.338055	0.015416	
429059.340055	0.015882	
429059.342055	0.015628	
429059.358004	0.016952	
429059.360006	0.019165	
429059.364005	0.020683	
429059.366006	0.017128	
429059.368006	0.016603	
429059.370006	0.016307	
429059.372006	0.015735	
429059.374006	0.015673	
429059.378004	0.015731	
429059.382005	0.012937	
429059.384006	0.013791	
429059.386006	0.012441	
429059.388006	0.013520	
429059.390006	0.014070	
429059.394004	0.012448	
429059.396006	0.008691	
429059.398009	0.009119	
429059.402011	0.009434	
429059.404011	0.008755	
429059.406012	0.008137	
429059.408011	0.006857	
429059.410012	0.006490	
429059.412011	0.006677	
429059.414013	0.005611	
429059.416012	0.004781	
429059.420012	0.004230	
429059.422013	0.004574	
429059.424012	0.004545	
429059.426012	0.004123	
429059.428013	0.003475	
429059.430012	0.002962	
429059.434010	0.003088	
429059.436012	0.001459	
429059.438012	0.001737	
429059.442011	0.001660	
429059.444012	0.002359	
429059.446011	0.002902	
429059.448012	0.002370	
429059.450012	0.002953	
429059.454011	0.002790	
429059.458010	0.002212	
429059.460012	0.003186	
429059.462011	0.003553	
429059.464012	0.003410	
429059.466012	0.003472	
429059.468013	0.004003	
429059.472010	0.004057	
429059.474012	0.003288	
429059.476011	0.002855	
429059.480011	0.003702	
429059.482013	0.004480	
429059.484013	0.005070	
429059.486011	0.004753	
429059.488012	0.004662	
429059.490012	0.004920	
429059.494015	0.003879	
429059.498015	0.004306	
429059.500017	0.004230	
429059.502016	0.004865	
429059.504016	0.004301	
429059.506016	0.004443	
429059.510014	0.004481	
429059.512015	0.002823	
429059.514016	0.002581	
429059.518016	0.002003	
429059.520016	0.002553	
429059.522016	0.002008	
429059.524016	0.001300	
429059.526016	0.000868	
429059.528016	0.000313	
429059.530015	-0.000491	
429059.534024	-0.001813	
429059.536023	-0.002421	
429059.538025	-0.001889	
429059.540024	-0.002601	
429059.542024	-0.003467	
429059.544024	-0.003350	
429059.546024	-0.003625	
429059.548024	-0.004610	
429059.550025	-0.005624	
429059.554036	-0.005859	
429059.556035	-0.006286	
429059.558036	-0.006067	
429059.560036	-0.006421	
429059.562036	-0.006265	
429059.564035	-0.007416	
429059.566039	-0.007842	
429059.570040	-0.007647	
429059.572042	-0.009106	
429059.574042	-0.009000	
429059.576042	-0.009307	
429059.578042	-0.008177	
429059.580042	-0.008575	
429059.582043	-0.009188	
429059.584042	-0.008829	
429059.586042	-0.009273	
429059.590040	-0.009301	
429059.594040	-0.009879	
429059.596042	-0.009313	
429059.598042	-0.009080	
429059.600042	-0.008951	
429059.602041	-0.008734	
429059.604040	-0.008447	
429059.606042	-0.008748	
429059.608042	-0.009826	
429059.612041	-0.009483	
429059.616040	-0.009440	
429059.618042	-0.009074	
429059.620041	-0.009513	
429059.622041	-0.009722	
429059.624042	-0.009698	
429059.628040	-0.009831	
429059.630042	-0.012406	
429059.632041	-0.013216	
429059.636041	-0.013153	
429059.638042	-0.014460	
429059.640041	-0.015296	
429059.642042	-0.016313	
429059.644042	-0.016271	
429059.646041	-0.018636	
429059.650040	-0.019967	
429059.654041	-0.021079	
429059.656042	-0.023702	
429059.658041	-0.025205	
429059.660041	-0.026653	
429059.662042	-0.027426	
429059.666039	-0.029381	
429059.668042	-0.032991	
429059.670045	-0.034733	
429059.674046	-0.036227	
429059.676046	-0.039298	
429059.678044	-0.040440	
429059.680046	-0.043071	
429059.682045	-0.045423	
429059.684045	-0.046737	
429059.688050	-0.049404	
429059.692051	-0.053177	
429059.694052	-0.056497	
429059.696051	-0.058544	
429059.698054	-0.060876	
429059.700051	-0.061350	
429059.704049	-0.062432	
429059.706052	-0.067515	
429059.708053	-0.068964	
429059.712052	-0.070183	
429059.714052	-0.072159	
429059.716051	-0.073533	
429059.718051	-0.074509	
429059.720052	-0.076561	
429059.722051	-0.076991	
429059.724052	-0.079598	
429059.728051	-0.081218	
429059.730050	-0.083780	
429059.732051	-0.083901	
429059.734052	-0.085213	
429059.736051	-0.087254	
429059.738051	-0.088360	
429059.740051	-0.089911	
429059.742052	-0.092231	
429059.744052	-0.094163	
429059.746051	-0.095847	
429059.750050	-0.098326	
429059.752051	-0.102258	
429059.754051	-0.103893	
429059.756052	-0.106432	
429059.758051	-0.109241	
429059.760052	-0.112148	
429059.764050	-0.114656	
429059.766051	-0.121776	
429059.768051	-0.125957	
429059.772056	-0.129948	
429059.774056	-0.136713	
429059.776056	-0.141017	
429059.778054	-0.145547	
429059.780055	-0.151190	
429059.782055	-0.155189	
429059.786062	-0.161505	
429059.788062	-0.171777	
429059.790062	-0.177898	
429059.792065	-0.182493	
429059.794066	-0.186755	
429059.796066	-0.193181	
429059.798065	-0.198927	
429059.800066	-0.203401	
429059.802065	-0.208918	
429059.806068	-0.215397	
429059.810068	-0.224435	
429059.812069	-0.232349	
429059.814072	-0.236602	
429059.816068	-0.240511	
429059.818068	-0.244393	
429059.822068	-0.248008	
429059.824070	-0.253133	
429059.826070	-0.257046	
429059.830069	-0.258493	
429059.832069	-0.259890	
429059.834070	-0.261022	
429059.836069	-0.261208	
429059.838070	-0.261506	
429059.840069	-0.261029	
429059.842074	-0.260398	
429059.846077	-0.259972	
429059.848078	-0.255915	
429059.850078	-0.252953	
429059.852078	-0.252101	
429059.854078	-0.246938	
429059.856077	-0.246345	
429059.858078	-0.245249	
429059.860076	-0.242788	
429059.862079	-0.235794	
429059.866076	-0.235028	
429059.868078	-0.229074	
429059.870083	-0.225675	
429059.872080	-0.221250	
429059.874084	-0.219364	
429059.876084	-0.217419	
429059.878084	-0.212779	
429059.882082	-0.210345	
429059.886082	-0.208217	
429059.888084	-0.202814	
429059.890083	-0.201465	
429059.892083	-0.199220	
429059.894083	-0.196863	
429059.896084	-0.196648	
429059.900081	-0.194775	
429059.902085	-0.192719	
429059.904084	-0.191290	
429059.908083	-0.188509	
429059.910084	-0.185120	
429059.912083	-0.184034	
429059.914084	-0.181576	
429059.916084	-0.179479	
429059.918083	-0.176491	
429059.920084	-0.175792	
429059.924091	-0.172299	
429059.926094	-0.164703	
429059.928094	-0.160264	
429059.930093	-0.155925	
429059.932094	-0.150373	
429059.934095	-0.144901	
429059.936094	-0.138867	
429059.938094	-0.131944	
429059.940094	-0.125144	
429059.942096	-0.117180	
429059.946092	-0.109750	
429059.948094	-0.091067	
429059.950093	-0.080620	
429059.952094	-0.071250	
429059.954094	-0.062029	
429059.956093	-0.050829	
429059.960091	-0.039782	
429059.962094	-0.018799	
429059.964093	-0.007161	
429059.968094	0.004024	
429059.970096	0.027133	
429059.972096	0.038331	
429059.974098	0.049530	
429059.976097	0.060805	
429059.978098	0.070820	
429059.982098	0.079924	
429059.984097	0.100615	
429059.986098	0.110117	
429059.988098	0.119806	
429059.990098	0.128684	
429059.992097	0.136028	
429059.994098	0.143422	
429059.996097	0.150829	
429059.998096	0.157303	
429060.002097	0.164778	
429060.004097	0.175914	
429060.006097	0.181568	
429060.008100	0.186585	
429060.010100	0.191058	
429060.012098	0.194874	
429060.014100	0.198685	
429060.016100	0.201124	
429060.018100	0.204523	
429060.022100	0.206658	
429060.026101	0.211703	
429060.028102	0.216531	
429060.030101	0.219032	
429060.032100	0.220940	
429060.034101	0.223965	
429060.038100	0.226188	
429060.040101	0.228978	
429060.042102	0.232760	
429060.046101	0.234882	
429060.048102	0.241279	
429060.050104	0.244374	
429060.052101	0.246046	
429060.054100	0.249432	
429060.056100	0.252566	
429060.060104	0.254683	
429060.064101	0.261580	
429060.066102	0.268620	
429060.068105	0.271302	
429060.070111	0.275199	
429060.072114	0.278081	
429060.076112	0.281163	
429060.078114	0.285378	
429060.080114	0.287313	
429060.084114	0.290778	
429060.086116	0.292645	
429060.088114	0.294453	
429060.090114	0.294251	
429060.092114	0.293727	
429060.094114	0.294144	
429060.096114	0.291608	
429060.100112	0.292013	
429060.102114	0.287540	
429060.104114	0.284241	
429060.106114	0.283006	
429060.108114	0.279472	
429060.110114	0.275293	
429060.112113	0.270990	
429060.114114	0.267286	
429060.116115	0.259750	
429060.118114	0.254525	
429060.122115	0.249186	
429060.124116	0.239047	
429060.126116	0.232033	
429060.128117	0.227408	
429060.130116	0.221261	
429060.132115	0.215732	
429060.136115	0.209168	
429060.138117	0.196561	
429060.140116	0.191290	
429060.144115	0.182524	
429060.146116	0.172290	
429060.148116	0.165959	
429060.150117	0.162129	
429060.152119	0.157042	
429060.154124	0.150550	
429060.158125	0.144485	
429060.162123	0.135364	
429060.164124	0.127909	
429060.166124	0.122457	
429060.168124	0.119614	
429060.170124	0.115755	
429060.174122	0.111800	
429060.176124	0.103656	
429060.178123	0.101476	
429060.182123	0.098828	
429060.184124	0.094869	
429060.186124	0.091318	
429060.188124	0.090160	
429060.190124	0.086585	
429060.192124	0.084420	
429060.194126	0.081799	
429060.198127	0.080265	
429060.200128	0.075008	
429060.202128	0.075602	
429060.204130	0.070350	
429060.206127	0.071416	
429060.208128	0.067069	
429060.210128	0.066639	
429060.212128	0.063643	
429060.214128	0.060940	
429060.218130	0.059448	
429060.220130	0.056703	
429060.222131	0.055428	
429060.224130	0.051801	
429060.226130	0.051319	
429060.228131	0.048641	
429060.230130	0.047882	
429060.232129	0.043812	
429060.234129	0.041812	
429060.238130	0.039520	
429060.240130	0.037148	
429060.242130	0.034780	
429060.244130	0.033417	
429060.246130	0.031705	
429060.248129	0.029534	
429060.250130	0.028890	
429060.254128	0.025042	
429060.258128	0.022378	
429060.260129	0.020118	
429060.262130	0.018642	
429060.264132	0.017392	
429060.266130	0.015897	
429060.268130	0.014235	
429060.272128	0.012971	
429060.274130	0.010393	
429060.276130	0.009238	
429060.280130	0.007588	
429060.282129	0.006923	
429060.284128	0.006889	
429060.286129	0.005202	
429060.288130	0.005140	
429060.290129	0.004050	
429060.294138	0.003626	
429060.298139	0.002365	
429060.300140	0.002066	
429060.302140	0.001942	
429060.304140	0.000558	
429060.306142	0.000702	
429060.310138	0.001590	
429060.312140	0.000442	
429060.314140	-0.000969	
429060.318139	-0.000264	
429060.320142	0.000434	
429060.322141	-0.000055	
429060.324144	-0.001014	
429060.340070	0.001052	
429060.342072	0.004247	
429060.346071	0.003527	
429060.348074	0.005238	
429060.350073	0.004401	
429060.352074	0.001679	
429060.354073	0.000744	
429060.356074	0.002598	
429060.360081	0.002768	
429060.364081	0.002397	
429060.366081	0.001302	
429060.368081	0.001075	
429060.370082	0.002146	
429060.372082	0.002083	
429060.376080	0.001601	
429060.378082	-0.000383	
429060.380082	-0.000748	
429060.384082	-0.000541	
429060.386083	0.000760	
429060.388081	0.000109	
429060.390082	-0.000221	
429060.392081	-0.000313	
429060.394082	-0.000085	
429060.398082	-0.001839	
429060.400083	-0.000987	
429060.402083	-0.001826	
429060.404086	-0.001527	
429060.406090	-0.000782	
429060.408089	-0.001506	
429060.410090	-0.001459	
429060.412089	-0.001028	
429060.414090	-0.001885	
429060.418088	-0.002710	
429060.422089	-0.002703	
429060.424089	-0.001465	
429060.426091	-0.001726	
429060.428090	-0.002059	
429060.430089	-0.001544	
429060.434088	-0.001457	
429060.436090	-0.002146	
429060.438089	-0.002436	
429060.442089	-0.001588	
429060.444090	-0.001224	
429060.446090	-0.001130	
429060.448090	-0.000924	
429060.450090	-0.001386	
429060.452090	-0.000746	
429060.456093	-0.001965	
429060.460093	-0.001120	
429060.462094	0.000187	
429060.464094	-0.000206	
429060.466094	-0.000210	
429060.468093	0.000027	
429060.472093	0.000451	
429060.474094	-0.000346	
429060.476094	0.000201	
429060.480092	0.000329	
429060.482093	0.001078	
429060.484094	0.001546	
429060.486093	0.000761	
429060.488094	0.001670	
429060.490093	0.001329	
429060.494093	0.000539	
429060.496094	0.000064	
429060.498094	0.000852	
429060.500095	0.001377	
429060.502094	0.001793	
429060.504093	0.001050	
429060.506094	0.001409	
429060.508093	0.001243	
429060.510094	0.000662	
429060.512095	0.000344	
429060.516103	-0.000041	
429060.518104	0.000545	
429060.520104	0.001399	
429060.522103	0.001389	
429060.524104	0.001473	
429060.526104	0.000481	
429060.528104	0.001354	
429060.530103	0.000619	
429060.532107	-0.000151	
429060.536116	0.000076	
429060.538117	0.000214	
429060.540118	0.000815	
429060.542119	0.000634	
429060.544119	0.000630	
429060.546117	-0.000053	
429060.548117	0.000395	
429060.550117	0.000526	
429060.552121	-0.000910	
429060.556122	-0.000479	
429060.558121	-0.000221	
429060.560122	0.000245	
429060.562122	0.000282	
429060.564122	-0.000024	
429060.566123	-0.000094	
429060.568122	0.000288	
429060.570121	0.000042	
429060.572122	-0.000250	
429060.574124	-0.000628	
429060.578128	0.000120	
429060.580130	-0.000310	
429060.582132	0.001483	
429060.584132	0.000807	
429060.586131	0.000553	
429060.588131	0.001940	
429060.592129	0.001624	
429060.594132	0.000998	
429060.596130	0.001169	
429060.600131	0.001217	
429060.602131	0.002293	
429060.604131	0.001737	
429060.606132	0.002646	
429060.608131	0.002676	
429060.612128	0.002761	
429060.614131	0.001495	
429060.618132	0.001781	
429060.620130	0.003468	
429060.622130	0.002834	
429060.624131	0.002434	
429060.626132	0.002717	
429060.630129	0.001995	
429060.632131	0.002126	
429060.634131	0.001937	
429060.638130	0.000819	
429060.640130	0.002105	
429060.642131	0.001721	
429060.644131	0.001214	
429060.646131	0.001179	
429060.648131	0.000227	
429060.652136	-0.000107	
429060.656136	-0.000177	
429060.658137	-0.000416	
429060.660136	-0.000735	
429060.662137	-0.000495	
429060.664138	-0.002217	
429060.668135	-0.001528	
429060.670137	-0.003447	
429060.672136	-0.004553	
429060.676136	-0.004330	
429060.678137	-0.004471	
429060.680144	-0.004964	
429060.684141	-0.006486	
429060.686144	-0.006607	
429060.690146	-0.007451	
429060.694146	-0.009496	
429060.696147	-0.008427	
429060.698147	-0.009428	
429060.700147	-0.009422	
429060.702147	-0.010336	
429060.706146	-0.009578	
429060.708147	-0.012500	
429060.710147	-0.012352	
429060.714147	-0.011975	
429060.716147	-0.012530	
429060.718147	-0.013154	
429060.720147	-0.013210	
429060.722147	-0.013223	
429060.724146	-0.013521	
429060.726147	-0.015700	
429060.730148	-0.015226	
429060.732149	-0.016540	
429060.734149	-0.015694	
429060.736148	-0.015865	
429060.738149	-0.017226	
429060.740150	-0.016495	
429060.742149	-0.018522	
429060.744149	-0.019408	
429060.746149	-0.020398	
429060.748148	-0.021630	
429060.752149	-0.021913	
429060.754149	-0.023406	
429060.756148	-0.024615	
429060.758149	-0.024678	
429060.760148	-0.026917	
429060.762149	-0.028115	
429060.766147	-0.029572	
429060.768149	-0.033172	
429060.770149	-0.035722	
429060.774148	-0.036656	
429060.776148	-0.041265	
429060.778152	-0.043092	
429060.780153	-0.046690	
429060.782149	-0.048975	
429060.784149	-0.050696	
429060.788151	-0.055814	
429060.790151	-0.060572	
429060.792150	-0.064010	
429060.794156	-0.065642	
429060.796155	-0.069331	
429060.798155	-0.072934	
429060.800155	-0.077257	
429060.802155	-0.079935	
429060.804155	-0.084041	
429060.806155	-0.089721	
429060.810155	-0.093736	
429060.812155	-0.102075	
429060.814156	-0.105306	
429060.816155	-0.109673	
429060.818155	-0.114038	
429060.820155	-0.119351	
429060.822155	-0.123110	
429060.824153	-0.128502	
429060.826157	-0.133217	
429060.830155	-0.136093	
429060.832155	-0.147628	
429060.834155	-0.149764	
429060.836155	-0.155467	
429060.838155	-0.159162	
429060.840155	-0.161450	
429060.842155	-0.166408	
429060.844154	-0.170950	
429060.846154	-0.174139	
429060.848155	-0.177859	
429060.852156	-0.182942	
429060.854155	-0.190864	
429060.856155	-0.193186	
429060.858157	-0.197148	
429060.860155	-0.200916	
429060.862155	-0.202649	
429060.866154	-0.206719	
429060.868156	-0.214378	
429060.870155	-0.216575	
429060.874155	-0.222440	
429060.876155	-0.228278	
429060.878155	-0.232316	
429060.880160	-0.237082	
429060.882159	-0.240981	
429060.884159	-0.245310	
429060.888158	-0.251004	
429060.892159	-0.261650	
429060.894159	-0.270619	
429060.896159	-0.276543	
429060.898157	-0.282427	
429060.900159	-0.288395	
429060.904157	-0.293983	
429060.906159	-0.308046	
429060.908159	-0.315233	
429060.912159	-0.321921	
429060.914159	-0.334288	
429060.916161	-0.340525	
429060.918158	-0.347414	
429060.920158	-0.354137	
429060.922159	-0.361764	
429060.924161	-0.368429	
429060.928161	-0.374878	
429060.930162	-0.386554	
429060.932163	-0.389696	
429060.934161	-0.394640	
429060.936161	-0.399761	
429060.938161	-0.403351	
429060.940161	-0.405266	
429060.942161	-0.408531	
429060.944162	-0.409866	
429060.948161	-0.411263	
429060.950162	-0.411557	
429060.952161	-0.410765	
429060.954161	-0.409448	
