time (s)	det(V)
424972.364933	-0.044370	
424972.366933	-0.046913	
424972.368934	-0.048453	
424972.370933	-0.051275	
424972.374932	-0.052876	
424972.376934	-0.056823	
424972.378933	-0.056691	
424972.380932	-0.063274	
424972.382945	-0.064187	
424972.384942	-0.066108	
424972.386940	-0.071247	
424972.388942	-0.073597	
424972.390942	-0.076827	
424972.394939	-0.080403	
424972.398940	-0.089848	
424972.400942	-0.098862	
424972.402941	-0.104915	
424972.404941	-0.110444	
424972.406940	-0.116978	
424972.408942	-0.121858	
424972.412939	-0.129792	
424972.414941	-0.143778	
424972.416942	-0.149921	
424972.420941	-0.158016	
424972.422942	-0.173205	
424972.424941	-0.181551	
424972.426941	-0.189831	
424972.428940	-0.198449	
424972.430942	-0.207756	
424972.434940	-0.218022	
424972.438940	-0.236216	
424972.440941	-0.254480	
424972.442942	-0.264671	
424972.444942	-0.274589	
424972.446941	-0.283626	
424972.450939	-0.293910	
424972.452942	-0.314348	
424972.454940	-0.324636	
424972.458941	-0.333609	
424972.460941	-0.351260	
424972.462940	-0.359959	
424972.464941	-0.368565	
424972.466941	-0.376994	
424972.468941	-0.383467	
424972.470942	-0.393274	
424972.474942	-0.400050	
424972.476941	-0.410947	
424972.478941	-0.414945	
424972.480942	-0.419707	
424972.482942	-0.424687	
424972.484942	-0.429599	
424972.486942	-0.435911	
424972.488940	-0.441398	
424972.490944	-0.447046	
424972.494943	-0.451136	
424972.496944	-0.460792	
424972.498944	-0.464387	
424972.500942	-0.468715	
424972.502944	-0.473149	
424972.504944	-0.477314	
424972.506944	-0.480392	
424972.510941	-0.485980	
424972.512944	-0.492927	
424972.514943	-0.497533	
424972.516944	-0.499707	
424972.518957	-0.502472	
424972.520958	-0.505175	
424972.522958	-0.509139	
424972.524956	-0.511687	
424972.526958	-0.514171	
424972.530955	-0.516022	
424972.534955	-0.521394	
424972.536958	-0.521686	
424972.538958	-0.521129	
424972.540958	-0.521510	
424972.542958	-0.522774	
424972.544957	-0.520928	
424972.548956	-0.518901	
424972.550958	-0.516252	
424972.552958	-0.512080	
424972.556957	-0.508252	
424972.558958	-0.497423	
424972.560955	-0.490560	
424972.562957	-0.483924	
424972.564957	-0.477063	
424972.566958	-0.467818	
424972.568959	-0.460377	
424972.572965	-0.451040	
424972.574966	-0.429462	
424972.576966	-0.419740	
424972.578966	-0.411738	
424972.580964	-0.402772	
424972.582965	-0.389938	
424972.584966	-0.376731	
424972.586966	-0.364034	
424972.588965	-0.351382	
424972.590970	-0.337924	
424972.594974	-0.326192	
424972.596974	-0.298316	
424972.598973	-0.286131	
424972.600974	-0.273205	
424972.602974	-0.261583	
424972.604973	-0.247978	
424972.608971	-0.234996	
424972.610973	-0.212827	
424972.612974	-0.202446	
424972.616974	-0.193969	
424972.618973	-0.170980	
424972.620972	-0.162067	
424972.622973	-0.149764	
424972.624973	-0.139676	
424972.626973	-0.131142	
424972.630973	-0.121901	
424972.634972	-0.105279	
424972.636974	-0.087054	
424972.638974	-0.079226	
424972.640973	-0.070991	
424972.642974	-0.062577	
424972.646971	-0.054599	
424972.648974	-0.039699	
424972.650973	-0.030794	
424972.654974	-0.021448	
424972.656973	-0.003352	
424972.658974	0.005340	
424972.660973	0.014091	
424972.662974	0.024266	
424972.664974	0.032926	
424972.668976	0.039983	
424972.672977	0.061504	
424972.674978	0.083766	
424972.676977	0.095080	
424972.678977	0.105431	
424972.680978	0.117374	
424972.684976	0.130018	
424972.686976	0.154929	
424972.688978	0.168020	
424972.692976	0.182468	
424972.694978	0.211398	
424972.696977	0.224692	
424972.698978	0.237964	
424972.700978	0.253339	
424972.702981	0.266321	
424972.704979	0.280650	
424972.708979	0.295261	
424972.710978	0.327265	
424972.712981	0.340239	
424972.714982	0.355320	
424972.716981	0.367608	
424972.718981	0.383560	
424972.720982	0.395683	
424972.722983	0.407631	
424972.724981	0.414614	
424972.728985	0.425370	
424972.730986	0.447430	
424972.732986	0.457434	
424972.734986	0.466002	
424972.736986	0.473600	
424972.738985	0.481835	
424972.740986	0.488274	
424972.744984	0.493903	
424972.746986	0.502794	
424972.748986	0.505144	
424972.750985	0.508528	
424972.752990	0.510528	
424972.755000	0.511817	
424972.757000	0.514185	
424972.759000	0.513823	
424972.761000	0.514168	
424972.764998	0.514645	
424972.768998	0.510944	
424972.771000	0.508638	
424972.773000	0.506617	
424972.775001	0.504674	
424972.777000	0.502884	
424972.778999	0.501202	
424972.782998	0.498048	
424972.785001	0.492838	
424972.787000	0.491371	
424972.790999	0.487942	
424972.793000	0.484091	
424972.795001	0.482394	
424972.797000	0.479228	
424972.799008	0.476201	
424972.801010	0.473473	
424972.803014	0.469845	
424972.807022	0.465796	
424972.809024	0.459540	
424972.811024	0.456190	
424972.813025	0.452378	
424972.815024	0.447871	
424972.817024	0.443903	
424972.819024	0.438323	
424972.821024	0.432028	
424972.823024	0.426462	
424972.827022	0.421655	
424972.829025	0.411792	
424972.831024	0.407165	
424972.833024	0.400587	
424972.835024	0.393735	
424972.837023	0.384225	
424972.839023	0.374694	
424972.843023	0.365892	
424972.845024	0.346886	
424972.847023	0.335803	
424972.851024	0.327229	
424972.853024	0.307126	
424972.855023	0.296098	
424972.857025	0.285568	
424972.859025	0.275303	
424972.861024	0.264150	
424972.863024	0.253397	
424972.867022	0.243112	
424972.869024	0.223786	
424972.871025	0.214553	
424972.873024	0.206293	
424972.875024	0.195963	
424972.877024	0.186096	
424972.879024	0.177620	
424972.883024	0.170240	
424972.885023	0.153017	
424972.887024	0.145168	
424972.889031	0.138772	
424972.891042	0.132002	
424972.893040	0.125529	
424972.895040	0.119140	
424972.897040	0.113425	
424972.899040	0.107936	
424972.901039	0.101108	
424972.905041	0.091332	
424972.909040	0.087092	
424972.926974	0.046384	
424972.928976	0.039201	
424972.932975	0.039958	
424972.934977	0.062640	
424972.936975	0.057810	
424972.938976	0.051281	
424972.940976	0.049449	
424972.942976	0.054390	
424972.946982	0.053014	
424972.950982	0.040682	
424972.952982	0.040676	
424972.954982	0.047158	
424972.956982	0.044569	
424972.958982	0.037891	
424972.962981	0.038505	
424972.964982	0.038644	
424972.966982	0.034018	
424972.970983	0.034064	
424972.972982	0.035001	
424972.974982	0.031479	
424972.976982	0.030167	
424972.978981	0.031156	
424972.980982	0.028681	
424972.984982	0.026513	
424972.988981	0.026623	
424972.990983	0.024372	
424972.992982	0.022464	
424972.994982	0.020880	
424972.996982	0.019153	
424973.000980	0.020025	
424973.002982	0.017096	
424973.004982	0.015753	
424973.008982	0.015395	
424973.010982	0.014346	
424973.012983	0.014308	
424973.014982	0.012247	
424973.016983	0.011776	
424973.018982	0.010458	
424973.022986	0.008592	
424973.026987	0.007835	
424973.028988	0.008035	
424973.030986	0.005971	
424973.032988	0.005923	
424973.034988	0.005314	
424973.038986	0.004583	
424973.040988	0.003139	
424973.042988	0.002721	
424973.046987	0.002154	
424973.048989	0.002349	
424973.050988	0.002419	
424973.052988	0.002370	
424973.054988	0.001805	
424973.056989	0.001627	
424973.060986	0.000184	
424973.064986	0.001001	
424973.066988	0.002353	
424973.068988	-0.000713	
424973.070989	0.001046	
424973.072988	0.001304	
424973.076987	0.001422	
424973.078988	0.001376	
424973.080988	0.001933	
424973.084987	-0.000582	
424973.086988	0.000518	
424973.088988	0.002764	
424973.090988	0.001708	
424973.092988	0.004012	
424973.094988	0.003190	
424973.098987	0.001141	
424973.102987	0.004439	
424973.104989	0.001299	
424973.106988	0.005309	
424973.108988	0.002690	
424973.110988	0.001585	
424973.114985	0.001225	
424973.116988	-0.000612	
424973.118989	0.002088	
424973.122987	0.003895	
424973.124989	0.002276	
424973.126987	0.002268	
424973.128989	0.001387	
424973.130987	0.002116	
424973.132988	0.001500	
424973.136996	0.003497	
424973.138996	0.001723	
424973.140996	0.000773	
424973.142997	0.002887	
424973.144998	0.001261	
424973.147002	-0.000740	
424973.149005	-0.001421	
424973.151006	-0.000595	
424973.153006	0.001536	
424973.155006	0.000175	
424973.159006	-0.001644	
424973.161005	-0.000968	
424973.163006	-0.002522	
424973.165006	0.000111	
424973.167006	-0.002850	
424973.169005	-0.002223	
424973.171005	-0.004564	
424973.173006	-0.000969	
424973.175005	-0.003562	
424973.179005	-0.003504	
424973.181005	-0.002314	
424973.183006	-0.001478	
424973.185006	-0.003897	
424973.187006	-0.002170	
424973.189005	-0.000453	
424973.191006	-0.002349	
424973.195004	-0.003440	
424973.197006	-0.002489	
424973.199005	-0.004553	
424973.201003	-0.001486	
424973.203006	-0.000035	
424973.205006	-0.000221	
424973.207005	-0.002065	
424973.209006	-0.002794	
424973.211005	-0.002058	
424973.215004	-0.001710	
424973.217007	-0.001405	
424973.219006	-0.001709	
424973.221005	-0.002359	
424973.223007	-0.002619	
424973.225005	-0.001124	
424973.227006	-0.001080	
424973.229005	-0.001230	
424973.231006	-0.000928	
424973.235003	0.000426	
424973.239003	-0.000457	
424973.241006	0.001988	
424973.243008	0.001745	
424973.245009	-0.000790	
424973.247008	0.002320	
424973.249010	-0.000346	
424973.253007	0.000710	
424973.255009	-0.000808	
424973.257010	-0.000667	
424973.261009	-0.002555	
424973.263010	-0.001721	
424973.265008	-0.004048	
424973.267010	-0.002584	
424973.269010	-0.003519	
424973.271010	-0.003544	
424973.273009	-0.002931	
424973.277012	-0.003625	
424973.279011	-0.005122	
424973.281011	-0.004786	
424973.283011	-0.006576	
424973.285010	-0.004183	
424973.287011	-0.009491	
424973.289011	-0.007513	
424973.291012	-0.005239	
424973.293011	-0.007751	
424973.295015	-0.008298	
424973.299011	-0.009257	
424973.301012	-0.009603	
424973.303012	-0.010322	
424973.305012	-0.010412	
424973.307010	-0.009906	
424973.309012	-0.011950	
424973.313010	-0.015383	
424973.315011	-0.015611	
424973.317011	-0.016071	
424973.321011	-0.015870	
424973.323011	-0.018426	
424973.325011	-0.018461	
424973.327010	-0.018792	
424973.329012	-0.020675	
424973.331012	-0.026170	
424973.335012	-0.023720	
424973.339014	-0.024608	
424973.341014	-0.025990	
424973.343014	-0.022729	
424973.345012	-0.024986	
424973.347014	-0.026882	
424973.351012	-0.027721	
424973.353014	-0.031411	
424973.355014	-0.031610	
424973.359012	-0.032277	
424973.361014	-0.033410	
424973.363013	-0.033099	
424973.365014	-0.036448	
424973.367013	-0.036319	
424973.369013	-0.037502	
424973.371016	-0.039508	
424973.375014	-0.039699	
424973.377013	-0.041472	
424973.379013	-0.042628	
424973.381013	-0.045675	
424973.383012	-0.045098	
424973.385014	-0.046796	
424973.387013	-0.049588	
424973.389014	-0.052255	
424973.391012	-0.054085	
424973.395014	-0.056003	
424973.397016	-0.061172	
424973.399016	-0.064223	
424973.401015	-0.064422	
424973.403016	-0.069257	
424973.405016	-0.072513	
424973.407015	-0.075148	
424973.411014	-0.080773	
424973.415013	-0.088987	
424973.417016	-0.099114	
424973.419016	-0.102114	
424973.421015	-0.108981	
424973.423015	-0.115364	
424973.425015	-0.119034	
424973.427015	-0.124545	
424973.429015	-0.132949	
424973.433015	-0.138304	
424973.435015	-0.150629	
424973.437015	-0.159205	
424973.439016	-0.165638	
424973.441015	-0.173008	
424973.443015	-0.179875	
424973.445016	-0.188270	
424973.447015	-0.197960	
424973.449016	-0.206844	
424973.451022	-0.216135	
424973.455017	-0.224379	
424973.457018	-0.241501	
424973.459017	-0.251273	
424973.461018	-0.260379	
424973.463018	-0.270287	
424973.465017	-0.279719	
424973.467018	-0.288477	
424973.469017	-0.298599	
424973.471018	-0.308875	
424973.475019	-0.318803	
424973.477020	-0.337285	
424973.479019	-0.345947	
424973.481018	-0.355254	
424973.483020	-0.365394	
424973.485021	-0.374436	
424973.487019	-0.383701	
424973.489019	-0.392517	
424973.491020	-0.401583	
424973.495017	-0.408817	
424973.497020	-0.420844	
424973.499020	-0.428939	
424973.501020	-0.436870	
424973.503020	-0.445989	
424973.505020	-0.454462	
424973.507020	-0.461340	
424973.511017	-0.470669	
424973.513020	-0.487415	
424973.515020	-0.494939	
424973.517019	-0.502234	
424973.519024	-0.509957	
424973.521029	-0.518395	
424973.523030	-0.525932	
424973.525030	-0.532928	
424973.527030	-0.540627	
424973.531027	-0.547433	
424973.535028	-0.563519	
424973.537029	-0.576049	
424973.539030	-0.581448	
424973.541029	-0.586844	
424973.543030	-0.593477	
424973.545030	-0.598353	
424973.547030	-0.602975	
424973.549029	-0.608533	
424973.553028	-0.611554	
424973.557028	-0.617012	
424973.559030	-0.618005	
424973.561030	-0.617507	
424973.563030	-0.616974	
424973.565030	-0.615550	
424973.569028	-0.612488	
424973.571030	-0.605891	
424973.573030	-0.599665	
424973.577029	-0.593986	
424973.579030	-0.577329	
424973.581029	-0.568951	
424973.583029	-0.559510	
424973.585030	-0.547858	
424973.587028	-0.537494	
424973.589028	-0.525857	
424973.595031	-0.501310	
424973.597029	-0.473379	
424973.599029	-0.457819	
424973.601030	-0.444291	
424973.603030	-0.429901	
424973.607027	-0.416809	
424973.609029	-0.391979	
424973.611029	-0.377060	
424973.615030	-0.361104	
424973.617030	-0.332482	
424973.619028	-0.317163	
424973.623029	-0.288376	
424973.625029	-0.275556	
424973.629033	-0.260947	
424973.633035	-0.235894	
424973.635036	-0.209801	
424973.637042	-0.198507	
424973.639043	-0.186779	
424973.641044	-0.175713	
424973.645041	-0.165683	
424973.647043	-0.144791	
424973.649044	-0.134137	
424973.653043	-0.125088	
424973.655044	-0.102441	
424973.657042	-0.093725	
424973.659045	-0.084885	
424973.661042	-0.074448	
424973.663044	-0.064143	
424973.665044	-0.056887	
424973.669043	-0.047455	
424973.671043	-0.028534	
424973.673044	-0.015357	
424973.675044	-0.008663	
424973.677044	0.002050	
424973.679044	0.014029	
424973.681044	0.022290	
424973.683042	0.032503	
424973.685043	0.039868	
424973.689043	0.052420	
424973.691044	0.071452	
424973.693044	0.080532	
424973.695044	0.092054	
424973.697043	0.103327	
424973.699044	0.113177	
424973.701044	0.124031	
424973.705042	0.134516	
424973.707044	0.156786	
424973.709043	0.166917	
424973.713044	0.180043	
424973.715043	0.205294	
424973.717044	0.216550	
424973.719045	0.226572	
424973.721044	0.240753	
424973.723043	0.254363	
424973.725042	0.265317	
424973.729044	0.278370	
424973.731046	0.302066	
424973.733047	0.315008	
424973.735046	0.325541	
424973.737051	0.338837	
424973.739053	0.350097	
424973.741053	0.362203	
424973.745052	0.371857	
424973.747054	0.390036	
424973.749054	0.397900	
424973.753054	0.407775	
424973.755054	0.420668	
424973.757053	0.429002	
424973.759054	0.436012	
424973.761054	0.445550	
424973.765052	0.454013	
424973.767054	0.465788	
424973.769054	0.472453	
424973.773054	0.479102	
424973.775054	0.495690	
424973.777054	0.499773	
424973.779054	0.507246	
424973.781054	0.511387	
424973.783054	0.518131	
424973.785054	0.523443	
424973.787057	0.528813	
424973.791053	0.535017	
424973.793054	0.545335	
424973.795054	0.550799	
424973.797054	0.555998	
424973.799054	0.560027	
424973.801055	0.565113	
424973.805052	0.569589	
424973.807054	0.576544	
424973.809053	0.579397	
424973.813054	0.581572	
424973.815054	0.588680	
424973.817054	0.591104	
424973.819054	0.592058	
424973.821053	0.594180	
424973.823059	0.594405	
424973.827058	0.593057	
424973.829057	0.591109	
424973.831057	0.589804	
424973.833060	0.587505	
424973.835063	0.584495	
424973.837064	0.580179	
424973.839061	0.575567	
424973.841062	0.569143	
424973.843062	0.563115	
424973.845067	0.555965	
424973.849077	0.547120	
424973.851077	0.529719	
424973.853078	0.519809	
424973.855078	0.509263	
424973.857080	0.498080	
424973.859078	0.487240	
424973.861076	0.473906	
424973.863079	0.461724	
424973.865078	0.447528	
424973.869077	0.434411	
424973.871078	0.411710	
424973.873078	0.402313	
424973.875078	0.388391	
424973.877078	0.375068	
424973.879078	0.360748	
424973.881081	0.346941	
424973.885077	0.334781	
424973.887078	0.307704	
424973.889078	0.294125	
424973.893078	0.281690	
424973.895078	0.260375	
424973.897078	0.247576	
424973.899078	0.236130	
424973.901079	0.226406	
424973.905076	0.216547	
424973.907078	0.197471	
424973.909079	0.188965	
424973.913081	0.179959	
424973.915082	0.165559	
424973.917082	0.158468	
424973.919082	0.152239	
424973.921083	0.144999	
424973.923082	0.139154	
424973.925081	0.132081	
424973.943528	0.089701	
424973.945529	0.091462	
424973.947529	0.092085	
424973.949530	0.092311	
424973.951533	0.089843	
424973.953533	0.076097	
424973.955535	0.071982	
424973.959534	0.071984	
424973.961534	0.071917	
424973.963534	0.069174	
424973.965534	0.067320	
424973.967535	0.065869	
424973.969535	0.057599	
424973.971535	0.053142	
424973.973534	0.054403	
424973.975535	0.054664	
424973.979534	0.054977	
424973.981535	0.048148	
424973.983535	0.045006	
424973.985535	0.041639	
424973.987535	0.038175	
424973.989535	0.038054	
424973.991535	0.038319	
424973.993536	0.038914	
424973.995535	0.036910	
424973.999543	0.033011	
424974.001545	0.027856	
424974.003545	0.025364	
424974.005545	0.025287	
424974.007544	0.025569	
424974.009545	0.024835	
424974.011544	0.022454	
424974.015543	0.020038	
424974.017544	0.016063	
424974.019545	0.015782	
424974.021545	0.015619	
424974.023545	0.016137	
424974.025544	0.014264	
424974.027545	0.012715	
424974.029546	0.011662	
424974.031545	0.010670	
424974.035542	0.009980	
424974.039545	0.008672	
424974.041547	0.006704	
424974.043547	0.006363	
424974.047546	0.004727	
424974.049547	0.005002	
424974.053545	0.004428	
424974.055545	0.001527	
424974.057547	0.001677	
424974.061546	0.000937	
424974.063546	0.002652	
424974.065548	0.001473	
424974.067547	0.001320	
424974.069547	0.001170	
424974.073545	0.000429	
424974.077544	0.000109	
424974.079547	0.000854	
424974.081547	0.000674	
424974.083547	0.000890	
424974.085547	0.001489	
424974.087545	0.001562	
424974.091545	0.000882	
424974.093549	-0.000017	
424974.095546	0.000856	
424974.099547	0.000536	
424974.101547	0.001051	
424974.103547	-0.000304	
424974.105547	0.001301	
424974.107548	0.001229	
424974.109546	0.001255	
424974.113545	0.000646	
424974.117547	0.001385	
424974.119547	-0.000260	
424974.121547	-0.000403	
424974.123552	0.001242	
424974.125546	-0.001663	
424974.129549	-0.000967	
424974.131551	0.000736	
424974.133552	0.001056	
424974.137551	-0.000393	
424974.139551	0.003746	
424974.141550	0.001089	
424974.143550	-0.000545	
424974.145551	-0.001403	
424974.147550	-0.001115	
424974.151549	-0.005669	
424974.155553	-0.002122	
424974.157550	-0.003229	
424974.159553	0.000705	
424974.161550	-0.000777	
424974.163551	0.002381	
424974.167549	0.000558	
424974.169552	0.000535	
424974.171551	-0.000753	
424974.175550	-0.002237	
424974.177551	0.000246	
424974.179551	0.000025	
424974.181551	-0.001279	
424974.183551	-0.000284	
424974.185550	-0.001482	
424974.189549	-0.002293	
424974.193550	-0.001445	
424974.195551	-0.002299	
424974.197550	-0.002038	
424974.199551	-0.004102	
424974.201551	0.001164	
424974.205548	0.001038	
424974.207550	-0.001244	
424974.209549	-0.000248	
424974.213550	-0.001038	
424974.215553	0.000722	
424974.217550	0.000602	
424974.219553	0.000491	
424974.221552	-0.000313	
424974.223552	-0.000477	
424974.225553	-0.000943	
424974.229550	0.000214	
424974.231553	0.000566	
424974.233553	0.002461	
424974.235553	0.000490	
424974.237551	0.003072	
424974.239552	0.001767	
424974.241552	0.001698	
424974.245550	0.001417	
424974.249550	0.002449	
424974.251552	0.002576	
424974.253555	0.000014	
424974.255554	0.001288	
424974.257554	0.002585	
424974.259555	0.002512	
424974.263553	0.003751	
424974.265555	0.002620	
424974.267553	0.002743	
424974.271555	0.001982	
424974.273554	0.004156	
424974.275554	0.002741	
424974.277555	0.000950	
424974.279555	0.003372	
424974.281553	0.001976	
424974.285555	0.001838	
424974.289555	0.002144	
424974.291556	0.004505	
424974.293554	0.002654	
424974.295555	0.003630	
424974.297555	0.003734	
424974.301552	0.003753	
424974.303554	0.001653	
424974.305554	0.002397	
424974.309555	-0.000055	
424974.311554	0.001332	
424974.313555	0.000329	
424974.315557	0.001271	
424974.317562	-0.001745	
424974.319562	0.000139	
424974.321565	-0.000402	
424974.325565	0.000663	
424974.327564	-0.000364	
424974.329565	0.001743	
424974.331563	0.000777	
424974.333564	0.002137	
424974.335565	0.000091	
424974.337564	-0.000147	
424974.339565	0.000351	
424974.341564	-0.000216	
424974.345562	-0.001527	
424974.347563	-0.000354	
