time (s)	det(V)
425557.150899	0.066180	
425557.152901	0.087250	
425557.154901	0.099578	
425557.158901	0.110880	
425557.160902	0.135248	
425557.162900	0.147464	
425557.164902	0.157771	
425557.166901	0.169869	
425557.168901	0.181915	
425557.170904	0.192082	
425557.174902	0.203562	
425557.176902	0.227315	
425557.178902	0.239799	
425557.180902	0.249799	
425557.182902	0.261132	
425557.184906	0.273314	
425557.186912	0.285647	
425557.188918	0.295162	
425557.190917	0.306301	
425557.192915	0.318527	
425557.196915	0.330947	
425557.198917	0.352617	
425557.200915	0.366011	
425557.202916	0.376216	
425557.204916	0.386314	
425557.206916	0.398014	
425557.210915	0.407252	
425557.212917	0.422563	
425557.214916	0.432609	
425557.218915	0.443257	
425557.220916	0.462768	
425557.222916	0.471218	
425557.224917	0.479904	
425557.226916	0.487351	
425557.230915	0.495741	
425557.234915	0.508389	
425557.236917	0.521721	
425557.238917	0.527023	
425557.240918	0.532627	
425557.242917	0.536562	
425557.244915	0.541120	
425557.248914	0.545367	
425557.250916	0.549401	
425557.252915	0.550899	
425557.256915	0.552586	
425557.258916	0.554062	
425557.260916	0.555061	
425557.262917	0.552565	
425557.264915	0.550584	
425557.266916	0.549070	
425557.270916	0.545243	
425557.274922	0.538079	
425557.276925	0.529870	
425557.278923	0.524758	
425557.280924	0.518493	
425557.282925	0.512416	
425557.286922	0.504856	
425557.288925	0.489833	
425557.290923	0.481300	
425557.294924	0.473476	
425557.296925	0.456300	
425557.298924	0.447841	
425557.300925	0.438591	
425557.302924	0.428712	
425557.304923	0.419776	
425557.306928	0.411893	
425557.310925	0.403604	
425557.312927	0.386534	
425557.314927	0.377461	
425557.316927	0.367955	
425557.318925	0.357990	
425557.320928	0.348100	
425557.322926	0.337812	
425557.324927	0.327751	
425557.326926	0.318707	
425557.330928	0.308894	
425557.332929	0.290179	
425557.334929	0.281001	
425557.336930	0.273002	
425557.338927	0.265167	
425557.340927	0.255612	
425557.342931	0.247856	
425557.346928	0.239928	
425557.348929	0.223666	
425557.350930	0.216554	
425557.354929	0.208514	
425557.356931	0.196269	
425557.358930	0.190185	
425557.360934	0.183336	
425557.362932	0.177134	
425557.364933	0.170740	
425557.366931	0.164007	
425557.368934	0.158114	
425557.372932	0.153460	
425557.374933	0.142666	
425557.376932	0.138216	
425557.378931	0.132748	
425557.380932	0.128279	
425557.382933	0.123991	
425557.386930	0.119293	
425557.388933	0.109381	
425557.390932	0.105994	
425557.394932	0.100877	
425557.408858	0.066402	
425557.410860	0.058380	
425557.414860	0.052055	
425557.416860	0.070833	
425557.418860	0.073232	
425557.420860	0.069029	
425557.422860	0.065107	
425557.424860	0.063988	
425557.428860	0.060580	
425557.430861	0.048655	
425557.432860	0.044407	
425557.434862	0.042066	
425557.436862	0.045566	
425557.438869	0.048838	
425557.440870	0.045132	
425557.442871	0.041195	
425557.444872	0.037156	
425557.446879	0.034955	
425557.450877	0.033866	
425557.452878	0.034218	
425557.454879	0.035668	
425557.456878	0.032737	
425557.458878	0.028751	
425557.460878	0.025577	
425557.462882	0.025364	
425557.466878	0.024449	
425557.468880	0.026344	
425557.470880	0.026373	
425557.474879	0.023838	
425557.476880	0.018202	
425557.478880	0.017174	
425557.480880	0.018093	
425557.482880	0.019898	
425557.484880	0.019557	
425557.486880	0.017547	
425557.488880	0.016199	
425557.492879	0.013646	
425557.494882	0.014276	
425557.496881	0.015279	
425557.498880	0.015278	
425557.500880	0.014440	
425557.502880	0.013231	
425557.506878	0.012299	
425557.508880	0.010738	
425557.510880	0.010930	
425557.514880	0.011016	
425557.516880	0.010792	
425557.518880	0.009299	
425557.520881	0.008616	
425557.522880	0.009512	
425557.524884	0.008611	
425557.528885	0.007867	
425557.530886	0.007361	
425557.532886	0.006722	
425557.534886	0.007015	
425557.536886	0.006964	
425557.538887	0.006948	
425557.540885	0.006618	
425557.542885	0.005939	
425557.544885	0.005994	
425557.548893	0.004263	
425557.552893	0.005110	
425557.554894	0.005462	
425557.556894	0.005060	
425557.558894	0.004868	
425557.560894	0.004593	
425557.564892	0.004616	
425557.566893	0.003546	
425557.568894	0.003146	
425557.572894	0.002364	
425557.574894	0.002957	
425557.576893	0.002921	
425557.578893	0.002730	
425557.580894	0.002938	
425557.584893	0.002832	
425557.588893	0.001251	
425557.590894	0.001424	
425557.592894	0.002478	
425557.594894	0.001574	
425557.596894	0.001213	
425557.598894	-0.001074	
425557.602892	0.002585	
425557.604894	0.000864	
425557.606894	0.000769	
425557.610894	0.000761	
425557.612896	0.002983	
425557.614896	0.001918	
425557.616896	0.000503	
425557.618896	0.001578	
425557.620896	-0.000226	
425557.622895	0.000691	
425557.626896	-0.000329	
425557.628895	0.000331	
425557.630897	0.001333	
425557.632896	0.001879	
425557.634896	0.000944	
425557.636896	0.000085	
425557.638896	0.000930	
425557.640896	0.000843	
425557.642896	-0.000068	
425557.646904	0.000131	
425557.648906	0.000174	
425557.650906	0.000747	
425557.652904	0.001130	
425557.654906	0.001296	
425557.656905	0.001462	
425557.658906	0.001348	
425557.662903	0.001174	
425557.664904	-0.000394	
425557.666906	0.000450	
425557.668906	-0.000458	
425557.670905	0.000928	
425557.672905	0.001806	
425557.674905	0.001225	
425557.676904	0.001837	
425557.678905	0.001569	
425557.682904	0.000165	
425557.686903	0.000249	
425557.688905	0.000459	
425557.690906	0.000075	
425557.692905	-0.000455	
425557.694905	0.000449	
425557.696905	0.000858	
425557.698906	-0.000575	
425557.700905	-0.000700	
425557.702908	-0.001110	
425557.706905	-0.000431	
425557.708906	-0.000985	
425557.710906	0.000574	
425557.712905	0.000965	
425557.714906	-0.000351	
425557.716905	0.000700	
425557.718905	-0.000427	
425557.720906	-0.001612	
425557.722907	-0.001344	
425557.726905	-0.001966	
425557.728908	-0.002675	
425557.730908	-0.000740	
425557.732908	-0.001648	
425557.734908	-0.002149	
425557.736907	-0.002129	
425557.738907	-0.003132	
425557.740908	-0.002378	
425557.742907	-0.002963	
425557.744907	-0.003106	
425557.748908	-0.003014	
425557.750908	-0.002282	
425557.752907	-0.003180	
425557.754908	-0.002568	
425557.756908	-0.002484	
425557.758908	-0.003472	
425557.762906	-0.002389	
425557.764908	-0.004666	
425557.766907	-0.004203	
425557.770907	-0.005017	
425557.772907	-0.004068	
425557.774908	-0.004288	
425557.776907	-0.005060	
425557.778908	-0.004766	
425557.780907	-0.005512	
425557.784914	-0.006121	
425557.786916	-0.006842	
425557.788914	-0.007176	
425557.790914	-0.006666	
425557.792916	-0.006410	
425557.794916	-0.007270	
425557.796916	-0.006881	
425557.798915	-0.007572	
425557.800917	-0.007763	
425557.802919	-0.009465	
425557.806922	-0.010095	
425557.808922	-0.010397	
425557.810921	-0.009716	
425557.812921	-0.009570	
425557.814921	-0.011356	
425557.816922	-0.012188	
425557.818921	-0.012843	
425557.820921	-0.013912	
425557.822920	-0.013348	
425557.826920	-0.015487	
425557.828921	-0.015786	
425557.830922	-0.016829	
425557.832920	-0.017127	
425557.834920	-0.019311	
425557.836922	-0.019213	
425557.838921	-0.019508	
425557.840922	-0.021522	
425557.842922	-0.022670	
425557.844924	-0.023347	
425557.848921	-0.025041	
425557.850922	-0.027148	
425557.852922	-0.028741	
425557.854921	-0.028723	
425557.856922	-0.030685	
425557.858921	-0.032542	
425557.862919	-0.033423	
425557.864921	-0.037842	
425557.866923	-0.039222	
425557.870921	-0.040388	
425557.872921	-0.042541	
425557.874921	-0.045087	
425557.876921	-0.046266	
425557.878921	-0.046924	
425557.880920	-0.050184	
425557.884928	-0.052142	
425557.888929	-0.056480	
425557.890930	-0.060203	
425557.892930	-0.064038	
425557.894930	-0.065268	
425557.896930	-0.068664	
425557.900927	-0.071408	
425557.902932	-0.076209	
425557.904930	-0.079179	
425557.908928	-0.082089	
425557.910930	-0.089603	
425557.912928	-0.089415	
425557.914929	-0.092821	
425557.916930	-0.098486	
425557.918929	-0.100299	
425557.920928	-0.103612	
425557.924933	-0.109296	
425557.926934	-0.116484	
425557.928934	-0.120581	
425557.930934	-0.124270	
425557.932933	-0.128673	
425557.934933	-0.131691	
425557.936935	-0.137703	
425557.940931	-0.142051	
425557.942933	-0.153060	
425557.944933	-0.158046	
425557.946934	-0.164730	
425557.948936	-0.170041	
425557.950933	-0.174716	
425557.952934	-0.181742	
425557.954934	-0.187401	
425557.956934	-0.193719	
425557.960932	-0.201031	
425557.962934	-0.216089	
425557.966933	-0.222250	
425557.968934	-0.236820	
425557.970934	-0.244447	
425557.972933	-0.251000	
425557.974933	-0.259753	
425557.978931	-0.267467	
425557.980933	-0.284727	
425557.982934	-0.293266	
425557.986934	-0.302275	
425557.988933	-0.318198	
425557.990933	-0.327099	
425557.992934	-0.334822	
425557.994933	-0.344195	
425557.996933	-0.351633	
425558.000936	-0.361824	
425558.004934	-0.376568	
425558.006935	-0.390552	
425558.008936	-0.397699	
425558.010935	-0.403419	
425558.012936	-0.409692	
425558.016933	-0.413494	
425558.018934	-0.421901	
425558.020935	-0.427135	
425558.024935	-0.431269	
425558.026936	-0.439269	
425558.028936	-0.442168	
425558.030936	-0.445725	
425558.032935	-0.447803	
425558.034935	-0.450057	
425558.036935	-0.452587	
425558.040940	-0.453563	
425558.042941	-0.454318	
425558.044942	-0.452596	
425558.046941	-0.452062	
425558.048941	-0.450453	
425558.050941	-0.448999	
425558.052941	-0.447115	
425558.054942	-0.444886	
425558.056941	-0.442235	
425558.060940	-0.439337	
425558.062942	-0.431888	
425558.064942	-0.426770	
425558.066941	-0.422808	
425558.068941	-0.418425	
425558.070942	-0.415689	
425558.072941	-0.411724	
425558.074941	-0.409026	
425558.076941	-0.403230	
425558.080942	-0.397660	
425558.082945	-0.383982	
425558.084944	-0.378152	
425558.086943	-0.370019	
425558.088943	-0.364291	
425558.090944	-0.355744	
425558.092942	-0.348263	
425558.096941	-0.341030	
425558.100941	-0.325459	
425558.102946	-0.306425	
425558.104945	-0.297784	
425558.106944	-0.288901	
425558.108945	-0.279720	
425558.110945	-0.268684	
425558.114943	-0.260149	
425558.116945	-0.242432	
425558.118945	-0.231002	
425558.122945	-0.221273	
425558.124948	-0.201112	
425558.126945	-0.191315	
425558.128945	-0.178243	
425558.130945	-0.166864	
425558.132946	-0.156444	
425558.136950	-0.148937	
425558.140948	-0.125420	
425558.142950	-0.100423	
425558.144948	-0.090151	
425558.146949	-0.079244	
425558.148949	-0.069186	
425558.152948	-0.055858	
425558.154948	-0.035038	
425558.156949	-0.023651	
425558.160949	-0.013335	
425558.162950	0.014458	
425558.164949	0.024702	
425558.166950	0.036994	
425558.168950	0.048883	
425558.170949	0.056977	
425558.172957	0.067464	
425558.176952	0.079874	
425558.178954	0.102673	
425558.180954	0.112090	
425558.182954	0.123965	
425558.184954	0.133088	
425558.186953	0.141475	
425558.188954	0.154318	
425558.190953	0.162458	
425558.192956	0.172870	
425558.196953	0.184261	
425558.198954	0.200948	
425558.200960	0.214173	
425558.202957	0.221185	
425558.204958	0.230771	
425558.206958	0.240239	
425558.208958	0.249016	
425558.212956	0.259817	
425558.214961	0.275888	
425558.216958	0.286323	
425558.218958	0.293396	
425558.220958	0.303128	
425558.222958	0.312229	
425558.224959	0.320222	
425558.226958	0.327549	
425558.228957	0.337881	
425558.232956	0.345146	
425558.236956	0.360088	
425558.238958	0.375384	
425558.240959	0.383058	
425558.242957	0.390373	
425558.244958	0.397496	
425558.246958	0.403481	
425558.250957	0.408316	
425558.252958	0.417012	
425558.254958	0.421817	
425558.258958	0.426509	
425558.260958	0.437974	
425558.262958	0.443633	
425558.264960	0.446450	
425558.266959	0.450969	
425558.268958	0.453418	
425558.272959	0.456149	
425558.276957	0.460679	
425558.278957	0.465199	
425558.280958	0.464202	
425558.282958	0.464792	
425558.284962	0.464816	
425558.288961	0.463290	
425558.290964	0.458868	
425558.292964	0.456485	
425558.296963	0.453333	
425558.298963	0.447419	
425558.300964	0.444223	
425558.302964	0.437664	
425558.304964	0.433127	
425558.306964	0.428499	
425558.310963	0.421908	
425558.314963	0.412454	
425558.316964	0.403193	
425558.318964	0.395724	
425558.320964	0.387993	
425558.322964	0.380848	
425558.326962	0.371986	
425558.328965	0.355991	
425558.330964	0.347165	
425558.334963	0.339620	
425558.336964	0.324900	
425558.338964	0.315222	
425558.340963	0.306196	
425558.342964	0.298018	
425558.344964	0.290865	
425558.348977	0.281131	
425558.350978	0.265640	
425558.352978	0.257252	
425558.354981	0.250980	
425558.356978	0.243516	
425558.358978	0.234792	
425558.360980	0.226930	
425558.362978	0.220777	
425558.364978	0.213373	
425558.368979	0.206099	
425558.372979	0.192024	
425558.374981	0.181144	
425558.376980	0.175409	
425558.378984	0.168203	
425558.380990	0.163195	
425558.384988	0.157656	
425558.386990	0.145119	
425558.388991	0.139902	
425558.392990	0.135454	
425558.394991	0.126718	
425558.396990	0.121162	
425558.398990	0.116690	
425558.400990	0.113220	
425558.402989	0.108214	
425558.404990	0.103037	
425558.406994	0.099268	
425558.411003	0.094462	
425558.424909	0.064317	
425558.426911	0.067406	
425558.428911	0.070472	
425558.430911	0.069655	
425558.434909	0.066313	
425558.438909	0.046444	
425558.440911	0.045091	
425558.442911	0.045321	
425558.444912	0.048105	
425558.446910	0.048967	
425558.448911	0.047150	
425558.452910	0.042061	
425558.456909	0.029976	
425558.458914	0.029914	
425558.460914	0.032546	
425558.462916	0.033376	
425558.464915	0.032075	
425558.466916	0.027107	
425558.470914	0.022494	
425558.472916	0.018333	
425558.474914	0.018514	
425558.478915	0.020408	
425558.480915	0.020557	
425558.482916	0.017720	
425558.484916	0.014325	
425558.486914	0.013121	
425558.488915	0.012580	
425558.492914	0.011198	
425558.494915	0.012958	
425558.496915	0.011019	
425558.498920	0.011146	
425558.500922	0.010110	
425558.502922	0.009322	
425558.504921	0.008302	
425558.506921	0.009070	
425558.508921	0.009037	
425558.512920	0.007871	
425558.516920	0.006215	
425558.518922	0.005994	
425558.520921	0.006330	
425558.522920	0.006366	
425558.524921	0.005383	
425558.528918	0.005262	
425558.530922	0.003330	
425558.532922	0.003217	
425558.536921	0.003458	
425558.538921	0.003697	
425558.540922	0.003024	
425558.542926	0.002377	
425558.544929	0.002470	
425558.546933	0.001856	
425558.550935	0.001093	
425558.554935	0.001029	
425558.556936	0.001417	
425558.558938	0.000516	
425558.560934	0.000978	
425558.562935	0.000902	
425558.566934	0.000268	
425558.568936	-0.000305	
425558.570936	-0.001018	
425558.574935	-0.000783	
425558.576937	0.000528	
425558.578934	-0.000759	
425558.580936	-0.001001	
425558.582936	-0.000950	
425558.584936	-0.001074	
425558.588936	-0.002247	
425558.592936	-0.002667	
425558.594936	-0.001599	
425558.596937	-0.001665	
425558.598938	-0.002133	
425558.600938	-0.001882	
425558.604936	-0.002224	
425558.606938	-0.002720	
425558.608938	-0.003330	
425558.612935	-0.002212	
425558.614938	-0.001818	
425558.616939	-0.001710	
425558.618938	-0.001469	
425558.620937	-0.001856	
425558.622938	-0.002098	
425558.626942	-0.002522	
425558.630944	-0.002404	
425558.632943	-0.000786	
425558.634943	-0.001304	
425558.636942	-0.000608	
425558.638944	-0.001369	
425558.642941	-0.000919	
425558.644943	-0.001855	
425558.646944	-0.002278	
425558.650942	-0.001857	
425558.652943	-0.001177	
425558.654946	-0.000475	
425558.656944	-0.000644	
425558.658946	-0.000280	
425558.660946	-0.000725	
425558.664944	-0.001287	
425558.668944	-0.000848	
425558.670945	-0.000481	
425558.672946	0.000340	
425558.674944	0.000047	
425558.676945	-0.000005	
425558.680943	0.001014	
425558.682945	-0.000312	
425558.684944	-0.000888	
425558.688944	-0.000180	
425558.690946	0.000421	
425558.692945	0.000366	
425558.696942	0.000383	
425558.698946	0.000328	
425558.702942	0.000275	
425558.706944	-0.001089	
425558.708945	0.000371	
425558.710945	0.000275	
425558.712945	-0.000042	
425558.714946	-0.000325	
425558.718943	0.000704	
425558.720944	-0.001158	
425558.722944	-0.001081	
425558.726946	-0.000464	
425558.728947	0.000660	
425558.730949	0.001231	
425558.732947	0.000765	
425558.734949	0.000393	
425558.736949	0.000325	
425558.738949	0.000628	
425558.742947	-0.000489	
425558.744948	0.000489	
425558.746949	0.000701	
425558.748948	-0.000043	
425558.750949	0.001304	
425558.752947	0.000180	
425558.754949	0.000703	
425558.758946	0.000202	
425558.762946	0.000290	
425558.764949	0.000636	
425558.766949	0.001941	
425558.768948	0.001549	
425558.770949	0.001044	
425558.772949	0.000742	
425558.776946	0.000641	
425558.778948	0.000425	
425558.780949	-0.000502	
425558.784948	0.000538	
425558.786948	0.001422	
425558.788948	0.001445	
425558.790948	0.001442	
425558.792948	0.001449	
425558.794949	0.000957	
425558.796950	0.000409	
425558.800949	0.000916	
425558.802948	0.000146	
425558.804949	0.001527	
425558.806948	0.001806	
425558.808949	0.001118	
425558.810948	0.001095	
425558.812948	0.001269	
425558.814949	0.000709	
425558.816949	-0.000028	
425558.820946	0.000175	
425558.822949	0.000148	
425558.824947	-0.000190	
425558.826948	0.000414	
425558.828951	0.000552	
425558.830952	-0.000292	
425558.832955	0.000267	
425558.836953	-0.000119	
425558.838953	-0.001811	
425558.840954	-0.001904	
425558.842955	-0.001887	
425558.844954	-0.001432	
425558.846955	-0.001798	
425558.848954	-0.001862	
425558.850955	-0.001777	
425558.852954	-0.003290	
425558.856952	-0.004090	
425558.860953	-0.004993	
425558.862954	-0.005064	
425558.864955	-0.005654	
425558.866954	-0.005798	
425558.868954	-0.006616	
425558.870955	-0.007286	
425558.872954	-0.007714	
425558.874954	-0.009411	
425558.876954	-0.009399	
425558.880954	-0.009964	
425558.882954	-0.011417	
425558.884955	-0.010664	
425558.886954	-0.012462	
425558.888954	-0.012932	
425558.890953	-0.013029	
425558.892955	-0.014365	
425558.894954	-0.014862	
425558.896955	-0.016577	
425558.900954	-0.016258	
425558.902955	-0.019765	
425558.904955	-0.019840	
425558.906954	-0.019599	
425558.908955	-0.019720	
425558.910955	-0.021459	
425558.912955	-0.021920	
425558.916954	-0.023923	
425558.920952	-0.025498	
425558.922955	-0.028732	
425558.924955	-0.030255	
425558.926954	-0.030835	
425558.928954	-0.034682	
425558.930959	-0.035674	
425558.934952	-0.034882	
425558.936955	-0.038646	
425558.938955	-0.042041	
425558.942954	-0.043478	
425558.944955	-0.044279	
425558.946954	-0.048490	
425558.948955	-0.052159	
425558.950955	-0.052665	
425558.952954	-0.055521	
425558.956959	-0.059299	
425558.960959	-0.065243	
425558.962959	-0.068732	
425558.964959	-0.074194	
425558.966958	-0.075939	
425558.968959	-0.079355	
425558.972957	-0.083652	
425558.974958	-0.093056	
425558.976959	-0.096969	
425558.980958	-0.102657	
425558.982959	-0.110124	
425558.984958	-0.116186	
425558.986959	-0.121225	
425558.988959	-0.126280	
425558.990958	-0.132250	
425558.992961	-0.138365	
425558.996968	-0.144347	
425558.998969	-0.157067	
425559.000969	-0.162910	
425559.002969	-0.168683	
425559.004968	-0.176693	
425559.006968	-0.183177	
425559.008969	-0.191039	
425559.010968	-0.198060	
425559.012969	-0.206255	
425559.016967	-0.214092	
425559.018967	-0.229797	
425559.020969	-0.237218	
425559.022969	-0.244285	
425559.024967	-0.253948	
425559.026969	-0.262503	
425559.028969	-0.270219	
425559.032966	-0.278784	
425559.036967	-0.296494	
425559.038968	-0.314392	
425559.040969	-0.322524	
425559.042968	-0.330906	
425559.044969	-0.339764	
425559.046969	-0.348446	
425559.048969	-0.357293	
425559.050968	-0.366589	
425559.054969	-0.374663	
425559.058968	-0.390556	
425559.060968	-0.405545	
425559.062970	-0.411295	
425559.064968	-0.415999	
425559.066969	-0.422701	
425559.070966	-0.428958	
425559.072968	-0.445532	
425559.074969	-0.452947	
425559.078968	-0.457297	
425559.080969	-0.470559	
425559.082967	-0.476267	
425559.084969	-0.482789	
425559.086969	-0.487225	
425559.088969	-0.493674	
425559.090970	-0.500517	
425559.094976	-0.506254	
425559.096977	-0.513548	
425559.098978	-0.518543	
425559.100976	-0.521659	
425559.102976	-0.524751	
425559.104976	-0.526816	
425559.106976	-0.530576	
425559.108976	-0.532376	
425559.110979	-0.532574	
425559.114976	-0.535398	
425559.116977	-0.534611	
425559.118977	-0.532284	
425559.120975	-0.531954	
425559.122977	-0.530424	
425559.124976	-0.527668	
425559.126975	-0.523566	
